          Spatially Averaged Totals (mm) over the simulation
     Time(Hours),       Cum Prec., Cum. Can. Evap., Cum. Soil Evap.,      Cum. Trans,  Cum. Aqu. Flow,  Cum. Discharge,  Canopy Storage,    Snow Storage,Subsurface Stor., Land Surf Stor.,   Channel Stor.
           0.050,           0.004,           0.000,           0.000,           0.002,           0.000,           0.000,           0.004,           0.000,        4149.992,           0.000,           0.000
          24.378,           2.031,           0.778,           0.000,           0.226,           0.006,           0.000,           0.837,           0.000,        4150.193,           0.000,           0.000
          48.315,           4.026,           1.775,           0.000,           0.226,          -0.018,           0.000,           0.868,           0.000,        4151.144,           0.000,           0.000
          72.315,           6.026,           2.775,           0.000,           0.226,          -0.101,           0.000,           0.872,           0.000,        4152.064,           0.000,           0.000
          96.315,           8.026,           3.775,           0.000,           0.226,          -0.241,           0.000,           0.873,           0.000,        4152.931,           0.000,           0.000
         120.315,          10.026,           4.775,           0.000,           0.226,          -0.434,           0.000,           0.873,           0.000,        4153.745,           0.000,           0.000
         144.315,          12.026,           5.775,           0.000,           0.226,          -0.678,           0.000,           0.873,           0.000,        4154.508,           0.000,           0.000
         168.315,          14.026,           6.775,           0.000,           0.226,          -0.968,           0.000,           0.873,           0.000,        4155.223,           0.000,           0.000
         192.315,          16.026,           7.775,           0.000,           0.226,          -1.303,           0.000,           0.873,           0.000,        4155.894,           0.000,           0.000
         216.315,          18.026,           8.775,           0.000,           0.226,          -1.679,           0.000,           0.873,           0.000,        4156.524,           0.000,           0.000
         240.315,          20.026,           9.775,           0.000,           0.226,          -2.094,           0.000,           0.873,           0.000,        4157.114,           0.000,           0.000
         264.315,          22.000,          10.775,           0.000,           0.226,          -2.545,           0.000,           0.848,           0.000,        4157.658,           0.000,           0.000
         288.315,          22.000,          11.362,           0.000,           0.619,          -3.012,           0.000,           0.225,           0.000,        4156.834,           0.000,           0.000
         312.315,          22.000,          11.525,           0.000,           1.416,          -3.425,           0.000,           0.062,           0.000,        4155.614,           0.000,           0.000
         336.315,          22.000,          11.570,           0.000,           2.324,          -3.761,           0.000,           0.017,           0.000,        4154.358,           0.000,           0.000
         360.315,          22.000,          11.583,           0.000,           3.264,          -4.020,           0.000,           0.005,           0.000,        4153.150,           0.000,           0.000
         384.315,          22.000,          11.586,           0.000,           4.211,          -4.203,           0.000,           0.001,           0.000,        4152.009,           0.000,           0.000
         408.315,          22.000,          11.587,           0.000,           5.161,          -4.317,           0.000,           0.000,           0.000,        4150.935,           0.000,           0.000
         432.315,          22.000,          11.588,           0.000,           6.112,          -4.364,           0.000,           0.000,           0.000,        4149.929,           0.000,           0.000
         456.315,          22.000,          11.588,           0.000,           7.062,          -4.348,           0.000,           0.000,           0.000,        4148.985,           0.000,           0.000
         480.315,          22.000,          11.588,           0.000,           8.013,          -4.273,           0.000,           0.000,           0.000,        4148.102,           0.000,           0.000
         504.315,          22.026,          11.589,           0.000,           8.962,          -4.142,           0.000,           0.025,           0.000,        4147.275,           0.000,           0.000
         528.315,          24.026,          12.383,           0.000,           9.158,          -3.970,           0.000,           0.826,           0.000,        4147.661,           0.000,           0.000
         552.315,          26.026,          13.383,           0.000,           9.158,          -3.836,           0.000,           0.866,           0.000,        4148.766,           0.000,           0.000
         576.315,          28.026,          14.383,           0.000,           9.158,          -3.770,           0.000,           0.872,           0.000,        4149.835,           0.000,           0.000
         600.315,          30.026,          15.383,           0.000,           9.158,          -3.772,           0.000,           0.873,           0.000,        4150.841,           0.000,           0.000
         624.315,          32.026,          16.383,           0.000,           9.158,          -3.836,           0.000,           0.873,           0.000,        4151.785,           0.000,           0.000
         648.315,          34.026,          17.383,           0.000,           9.158,          -3.959,           0.000,           0.873,           0.000,        4152.670,           0.000,           0.000
         672.315,          36.026,          18.383,           0.000,           9.158,          -4.136,           0.000,           0.873,           0.000,        4153.500,           0.000,           0.000
         696.315,          38.026,          19.383,           0.000,           9.158,          -4.365,           0.000,           0.873,           0.000,        4154.278,           0.000,           0.000
         720.315,          40.026,          20.383,           0.000,           9.158,          -4.641,           0.000,           0.873,           0.000,        4155.008,           0.000,           0.000
         744.315,          42.026,          21.383,           0.000,           9.158,          -4.963,           0.000,           0.873,           0.000,        4155.693,           0.000,           0.000
         768.315,          44.026,          22.383,           0.000,           9.158,          -5.326,           0.000,           0.873,           0.000,        4156.334,           0.000,           0.000
         792.315,          46.026,          23.383,           0.000,           9.158,          -5.730,           0.000,           0.873,           0.000,        4156.936,           0.000,           0.000
         816.315,          48.026,          24.383,           0.000,           9.158,          -6.170,           0.000,           0.873,           0.000,        4157.495,           0.000,           0.000
         840.315,          50.026,          25.383,           0.000,           9.158,          -6.645,           0.000,           0.873,           0.000,        4158.016,           0.000,           0.000
         864.315,          52.026,          26.383,           0.000,           9.158,          -7.152,           0.000,           0.873,           0.000,        4158.505,           0.000,           0.000
         888.315,          54.026,          27.383,           0.000,           9.158,          -7.690,           0.000,           0.873,           0.000,        4158.965,           0.000,           0.000
         912.315,          56.026,          28.383,           0.000,           9.158,          -8.257,           0.000,           0.873,           0.000,        4159.385,           0.000,           0.000
         936.315,          58.026,          29.383,           0.000,           9.158,          -8.849,           0.000,           0.873,           0.000,        4159.797,           0.000,           0.000
         960.315,          60.026,          30.383,           0.000,           9.158,          -9.467,           0.000,           0.873,           0.000,        4160.183,           0.000,           0.000
         984.315,          62.026,          31.383,           0.000,           9.158,         -10.108,           0.000,           0.873,           0.000,        4160.545,           0.000,           0.000
        1008.315,          64.026,          32.383,           0.000,           9.158,         -10.771,           0.000,           0.873,           0.000,        4160.885,           0.000,           0.000
        1032.315,          66.026,          33.383,           0.000,           9.158,         -11.455,           0.000,           0.873,           0.000,        4161.205,           0.000,           0.000
        1056.315,          68.026,          34.383,           0.000,           9.158,         -12.158,           0.000,           0.873,           0.000,        4161.504,           0.000,           0.000
        1080.315,          70.026,          35.383,           0.000,           9.158,         -12.879,           0.000,           0.873,           0.000,        4161.786,           0.000,           0.000
        1104.315,          72.026,          36.383,           0.000,           9.158,         -13.618,           0.000,           0.873,           0.000,        4162.050,           0.000,           0.000
        1128.315,          74.026,          37.383,           0.000,           9.158,         -14.372,           0.000,           0.873,           0.000,        4162.297,           0.000,           0.000
        1152.315,          76.026,          38.383,           0.000,           9.158,         -15.142,           0.000,           0.873,           0.000,        4162.530,           0.000,           0.000
        1176.315,          78.026,          39.383,           0.000,           9.158,         -15.926,           0.000,           0.873,           0.000,        4162.748,           0.000,           0.000
        1200.315,          80.026,          40.383,           0.000,           9.158,         -16.723,           0.000,           0.873,           0.000,        4162.953,           0.000,           0.000
        1224.315,          82.026,          41.383,           0.000,           9.158,         -17.532,           0.000,           0.873,           0.000,        4163.145,           0.000,           0.000
        1248.315,          84.026,          42.383,           0.000,           9.158,         -18.353,           0.000,           0.873,           0.000,        4163.326,           0.000,           0.000
        1272.315,          86.026,          43.383,           0.000,           9.158,         -19.185,           0.000,           0.873,           0.000,        4163.496,           0.000,           0.000
        1296.315,          88.026,          44.383,           0.000,           9.158,         -20.027,           0.000,           0.873,           0.000,        4163.655,           0.000,           0.000
        1320.315,          90.026,          45.383,           0.000,           9.158,         -20.879,           0.000,           0.873,           0.000,        4163.805,           0.000,           0.000
        1344.315,          92.026,          46.383,           0.000,           9.158,         -21.739,           0.000,           0.873,           0.000,        4163.945,           0.000,           0.000
        1368.315,          94.026,          47.383,           0.000,           9.158,         -22.608,           0.000,           0.873,           0.000,        4164.077,           0.000,           0.000
        1392.315,          96.026,          48.383,           0.000,           9.158,         -23.486,           0.000,           0.873,           0.000,        4164.201,           0.000,           0.000
        1416.315,          98.026,          49.383,           0.000,           9.158,         -24.370,           0.000,           0.873,           0.000,        4164.318,           0.000,           0.000
        1440.315,         100.026,          50.383,           0.000,           9.158,         -25.262,           0.000,           0.873,           0.000,        4164.427,           0.000,           0.000
        1464.315,         102.026,          51.383,           0.000,           9.158,         -26.160,           0.000,           0.873,           0.000,        4164.530,           0.000,           0.000
        1488.315,         104.026,          52.383,           0.000,           9.158,         -27.064,           0.000,           0.873,           0.000,        4164.627,           0.000,           0.000
        1512.315,         106.026,          53.383,           0.000,           9.158,         -27.974,           0.000,           0.873,           0.000,        4164.717,           0.000,           0.000
        1536.315,         108.026,          54.383,           0.000,           9.158,         -28.890,           0.000,           0.873,           0.000,        4164.803,           0.000,           0.000
        1560.315,         110.026,          55.383,           0.000,           9.158,         -29.810,           0.000,           0.873,           0.000,        4164.883,           0.000,           0.000
        1584.315,         112.026,          56.383,           0.000,           9.158,         -30.736,           0.000,           0.873,           0.000,        4164.958,           0.000,           0.000
        1608.315,         114.026,          57.383,           0.000,           9.158,         -31.666,           0.000,           0.873,           0.000,        4165.029,           0.000,           0.000
        1632.315,         116.026,          58.383,           0.000,           9.158,         -32.600,           0.000,           0.873,           0.000,        4165.095,           0.000,           0.000
        1656.315,         118.026,          59.383,           0.000,           9.158,         -33.538,           0.000,           0.873,           0.000,        4165.157,           0.000,           0.000
        1680.315,         120.026,          60.383,           0.000,           9.158,         -34.480,           0.000,           0.873,           0.000,        4165.216,           0.000,           0.000
        1704.315,         122.026,          61.383,           0.000,           9.158,         -35.425,           0.000,           0.873,           0.000,        4165.271,           0.000,           0.000
        1728.315,         124.026,          62.383,           0.000,           9.158,         -36.374,           0.000,           0.873,           0.000,        4165.323,           0.000,           0.000
        1752.315,         126.026,          63.383,           0.000,           9.158,         -37.326,           0.000,           0.873,           0.000,        4165.371,           0.000,           0.000
        1776.315,         128.026,          64.383,           0.000,           9.158,         -38.281,           0.000,           0.873,           0.000,        4165.417,           0.000,           0.000
        1800.315,         130.026,          65.383,           0.000,           9.158,         -39.238,           0.000,           0.873,           0.000,        4165.460,           0.000,           0.000
        1824.315,         132.026,          66.383,           0.000,           9.158,         -40.198,           0.000,           0.873,           0.000,        4165.500,           0.000,           0.000
        1848.315,         134.026,          67.383,           0.000,           9.158,         -41.161,           0.000,           0.873,           0.000,        4165.538,           0.000,           0.000
        1872.315,         136.026,          68.383,           0.000,           9.158,         -42.125,           0.000,           0.873,           0.000,        4165.574,           0.000,           0.000
        1896.315,         138.026,          69.383,           0.000,           9.158,         -43.092,           0.000,           0.873,           0.000,        4165.608,           0.000,           0.000
        1920.315,         140.026,          70.383,           0.000,           9.158,         -44.061,           0.000,           0.873,           0.000,        4165.639,           0.000,           0.000
        1944.315,         142.026,          71.383,           0.000,           9.158,         -45.031,           0.000,           0.873,           0.000,        4165.669,           0.000,           0.000
        1968.315,         144.026,          72.383,           0.000,           9.158,         -46.004,           0.000,           0.873,           0.000,        4165.696,           0.000,           0.000
        1992.315,         146.026,          73.383,           0.000,           9.158,         -46.978,           0.000,           0.873,           0.000,        4165.723,           0.000,           0.000
        2016.315,         148.026,          74.383,           0.000,           9.158,         -47.954,           0.000,           0.873,           0.000,        4165.747,           0.000,           0.000
        2040.315,         150.026,          75.383,           0.000,           9.158,         -48.931,           0.000,           0.873,           0.000,        4165.770,           0.000,           0.000
        2064.315,         152.026,          76.383,           0.000,           9.158,         -49.909,           0.000,           0.873,           0.000,        4165.792,           0.000,           0.000
        2088.315,         154.026,          77.383,           0.000,           9.158,         -50.889,           0.000,           0.873,           0.000,        4165.812,           0.000,           0.000
        2112.315,         156.026,          78.383,           0.000,           9.158,         -51.870,           0.000,           0.873,           0.000,        4165.832,           0.000,           0.000
        2136.315,         158.026,          79.383,           0.000,           9.158,         -52.852,           0.000,           0.873,           0.000,        4165.850,           0.000,           0.000
        2160.315,         160.026,          80.383,           0.000,           9.158,         -53.835,           0.000,           0.873,           0.000,        4165.866,           0.000,           0.000
        2184.315,         162.026,          81.383,           0.000,           9.158,         -54.820,           0.000,           0.873,           0.000,        4165.882,           0.000,           0.000
        2208.315,         164.026,          82.383,           0.000,           9.158,         -55.805,           0.000,           0.873,           0.000,        4165.897,           0.000,           0.000
        2232.315,         166.026,          83.383,           0.000,           9.158,         -56.791,           0.000,           0.873,           0.000,        4165.911,           0.000,           0.000
        2256.315,         168.026,          84.383,           0.000,           9.158,         -57.778,           0.000,           0.873,           0.000,        4165.925,           0.000,           0.000
        2280.315,         170.026,          85.383,           0.000,           9.158,         -58.765,           0.000,           0.873,           0.000,        4165.937,           0.000,           0.000
